-70, -7, 0
-69, -7, 0
-69, -7, 0
-69, -7, 0
-69, -7, 0
-69, -7, 0
-69, -7, 0
-69, -7, 0
-70, -7, 1
-70, -7, 1
-69, -7, 1
-69, -7, 1
-69, -7, 1
-70, -7, 1
-69, -7, 1
-69, -7, 1
-69, -7, 2
-69, -6, 2
-70, -7, 2
-70, -7, 2
-70, -7, 2
-69, -7, 2
-69, -7, 2
-70, -7, 2
-69, -7, 3
-70, -7, 3
-70, -7, 3
-69, -7, 3
-70, -7, 3
-70, -7, 3
-69, -7, 3
-70, -7, 3
-70, -7, 4
-69, -7, 4
-69, -7, 4
-69, -7, 4
-69, -7, 4
-70, -7, 4
-70, -7, 4
-69, -7, 4
-69, -7, 5
-69, -7, 5
-69, -7, 5
-69, -7, 5
-70, -7, 5
-70, -7, 5
-70, -7, 5
-69, -7, 5
-69, -7, 6
-69, -7, 6
-69, -7, 6
-70, -7, 6
-70, -7, 6
-70, -7, 6
-69, -7, 6
-69, -7, 6
-70, -7, 7
-70, -7, 7
-70, -7, 7
-68, -6, 7
-70, -7, 7
-70, -7, 7
-70, -7, 7
-69, -6, 7
-70, -7, 8
-69, -7, 8
-69, -7, 8
-69, -7, 8
-70, -7, 8
-70, -7, 8
-70, -7, 8
-70, -7, 8
-70, -7, 9
-70, -7, 9
-69, -7, 9
-69, -7, 9
-70, -7, 9
-70, -7, 9
-69, -7, 9
-69, -7, 9
-69, -7, 10
-69, -7, 10
-70, -7, 10
-70, -7, 10
-70, -7, 10
-69, -7, 10
-69, -7, 10
-68, -6, 10
-69, -7, 11
-69, -7, 11
-69, -7, 11
-68, -6, 11
-69, -7, 11
-70, -7, 11
-68, -6, 11
-69, -7, 11
-69, -7, 12
-69, -7, 12
-70, -7, 12
-69, -7, 12
-70, -7, 12
-70, -7, 12
-69, -7, 12
-69, -7, 12
-70, -7, 13
-70, -7, 13
-70, -7, 13
-70, -7, 13
-70, -7, 13
-69, -7, 13
-69, -7, 13
-69, -7, 13
-70, -7, 14
-69, -7, 14
-69, -7, 14
-69, -7, 14
-69, -6, 14
-69, -6, 14
-68, -6, 14
-68, -6, 14
-68, -6, 15
-68, -6, 15
-68, -6, 15
-68, -6, 15
-68, -6, 15
18, 1, 15
17, 1, 15
17, 1, 15
18, 1, 16
18, 1, 16
16, 1, 16
17, 1, 16
16, 1, 16
16, 1, 16
17, 1, 16
17, 1, 16
17, 1, 17
17, 1, 17
17, 1, 17
16, 1, 17
16, 1, 17
16, 1, 17
17, 1, 17
16, 1, 17
9, 0, 18
17, 1, 18
15, 1, 18
15, 1, 18
15, 1, 18
15, 1, 18
15, 1, 18
15, 1, 18
16, 1, 19
16, 1, 19
16, 1, 19
16, 1, 19
15, 1, 19
15, 1, 19
15, 1, 19
15, 1, 19
15, 1, 20
16, 1, 20
16, 1, 20
16, 1, 20
16, 1, 20
16, 1, 20
16, 1, 20
14, 1, 20
15, 1, 21
14, 1, 21
16, 1, 21
14, 1, 21
14, 1, 21
15, 1, 21
15, 1, 21
14, 1, 21
15, 1, 22
14, 1, 22
14, 1, 22
15, 1, 22
14, 1, 22
14, 1, 22
15, 1, 22
14, 1, 22
15, 1, 23
15, 1, 23
14, 1, 23
14, 1, 23
14, 1, 23
6, 0, 23
14, 1, 23
13, 1, 23
14, 1, 24
14, 1, 24
14, 1, 24
14, 1, 24
13, 1, 24
13, 1, 24
13, 1, 24
13, 1, 24
13, 1, 25
14, 1, 25
13, 1, 25
13, 1, 25
13, 1, 25
14, 1, 25
14, 1, 25
13, 1, 25
14, 1, 26
14, 1, 26
14, 1, 26
13, 1, 26
13, 1, 26
14, 1, 26
13, 1, 26
12, 1, 26
13, 1, 27
12, 1, 27
12, 1, 27
12, 1, 27
12, 1, 27
13, 1, 27
13, 1, 27
13, 1, 27
13, 1, 28
13, 1, 28
12, 1, 28
13, 1, 28
13, 1, 28
12, 1, 28
13, 1, 28
13, 1, 28
13, 1, 29
12, 1, 29
12, 1, 29
13, 1, 29
13, 1, 29
13, 1, 29
13, 1, 29
12, 1, 29
11, 1, 30
11, 1, 30
11, 1, 30
11, 1, 30
12, 1, 30
11, 1, 30
11, 1, 30
12, 1, 30
11, 1, 31
11, 1, 31
11, 1, 31
11, 1, 31
11, 1, 31
11, 1, 31
11, 1, 31
11, 1, 31
12, 1, 32
12, 1, 32
12, 1, 32
11, 1, 32
11, 1, 32
11, 1, 32
11, 1, 32
11, 1, 32
11, 1, 33
11, 1, 33
11, 1, 33
11, 1, 33
11, 1, 33
11, 1, 33
10, 1, 33
11, 1, 33
10, 1, 34
10, 1, 34
10, 1, 34
11, 1, 34
11, 1, 34
11, 1, 34
11, 1, 34
11, 1, 34
11, 1, 35
10, 1, 35
11, 1, 35
11, 1, 35
11, 1, 35
10, 1, 35
10, 1, 35
10, 1, 35
10, 1, 36
10, 1, 36
10, 1, 36
10, 1, 36
11, 1, 36
11, 1, 36
10, 1, 36
10, 1, 36
10, 1, 37
10, 1, 37
10, 1, 37
10, 1, 37
10, 1, 37
10, 1, 37
10, 1, 37
10, 1, 37
10, 1, 38
9, 1, 38
10, 1, 38
10, 1, 38
10, 1, 38
10, 1, 38
10, 1, 38
10, 1, 38
10, 1, 39
10, 1, 39
9, 0, 39
9, 0, 39
10, 1, 39
9, 0, 39
9, 0, 39
10, 1, 39
10, 1, 40
9, 0, 40
9, 0, 40
9, 1, 40
9, 1, 40
9, 0, 40
9, 0, 40
9, 0, 40
8, 0, 41
9, 0, 41
8, 0, 41
9, 0, 41
9, 0, 41
9, 0, 41
9, 0, 41
9, 0, 41
9, 0, 42
9, 0, 42
9, 0, 42
8, 0, 42
9, 0, 42
9, 0, 42
9, 0, 42
9, 0, 42
9, 1, 43
9, 1, 43
9, 1, 43
9, 1, 43
10, 1, 43
10, 1, 43
10, 1, 43
10, 1, 43
10, 1, 44
10, 1, 44
10, 1, 44
10, 1, 44
9, 0, 44
9, 1, 44
10, 1, 44
10, 1, 44
10, 1, 45
10, 1, 45
10, 1, 45
10, 1, 45
10, 1, 45
10, 1, 45
10, 1, 45
10, 1, 45
10, 1, 46
10, 1, 46
11, 1, 46
11, 1, 46
11, 1, 46
11, 1, 46
11, 1, 46
11, 1, 46
11, 1, 47
11, 1, 47
11, 1, 47
11, 1, 47
11, 1, 47
11, 1, 47
11, 1, 47
11, 1, 47
11, 1, 48
11, 1, 48
11, 1, 48
12, 1, 48
12, 1, 48
11, 1, 48
11, 1, 48
12, 1, 48
12, 1, 49
12, 1, 49
12, 1, 49
11, 1, 49
12, 1, 49
12, 1, 49
12, 1, 49
12, 1, 49
12, 1, 50
12, 1, 50
12, 1, 50
12, 1, 50
12, 1, 50
12, 1, 50
12, 1, 50
13, 1, 50
13, 1, 51
13, 1, 51
13, 1, 51
13, 1, 51
13, 1, 51
13, 1, 51
13, 1, 51
12, 1, 51
13, 1, 52
13, 1, 52
13, 1, 52
13, 1, 52
13, 1, 52
13, 1, 52
13, 1, 52
13, 1, 52
13, 1, 53
13, 1, 53
13, 1, 53
13, 1, 53
13, 1, 53
13, 1, 53
14, 1, 53
14, 1, 53
12, 1, 54
13, 1, 54
14, 1, 54
14, 1, 54
14, 1, 54
14, 1, 54
14, 1, 54
14, 1, 54
14, 1, 55
14, 1, 55
6, 0, 55
14, 1, 55
14, 1, 55
14, 1, 55
14, 1, 55
14, 1, 55
14, 1, 56
14, 1, 56
14, 1, 56
14, 1, 56
14, 1, 56
14, 1, 56
15, 1, 56
15, 1, 56
15, 1, 57
15, 1, 57
15, 1, 57
15, 1, 57
15, 1, 57
15, 1, 57
14, 1, 57
15, 1, 57
15, 1, 58
15, 1, 58
15, 1, 58
15, 1, 58
15, 1, 58
15, 1, 58
15, 1, 58
15, 1, 58
15, 1, 59
16, 1, 59
16, 1, 59
16, 1, 59
16, 1, 59
16, 1, 59
16, 1, 59
16, 1, 59
16, 1, 60
16, 1, 60
16, 1, 60
16, 1, 60
16, 1, 60
16, 1, 60
16, 1, 60
16, 1, 60
17, 1, 61
17, 1, 61
17, 1, 61
17, 1, 61
17, 1, 61
17, 1, 61
17, 1, 61
17, 1, 61
17, 1, 62
17, 1, 62
17, 1, 62
17, 1, 62
17, 1, 62
17, 1, 62
17, 1, 62
18, 1, 62
17, 1, 63
18, 1, 63
18, 1, 63
18, 1, 63
18, 1, 63
17, 1, 63
18, 1, 63
18, 1, 63
18, 1, 64
18, 1, 64
18, 1, 64
19, 1, 64
19, 1, 64
19, 1, 64
19, 1, 64
19, 1, 64
19, 1, 65
19, 1, 65
19, 1, 65
19, 1, 65
19, 1, 65
19, 1, 65
19, 2, 65
19, 2, 65
19, 2, 66
19, 2, 66
19, 2, 66
18, 1, 66
20, 2, 66
20, 2, 66
20, 2, 66
20, 2, 66
20, 2, 67
20, 2, 67
20, 2, 67
20, 2, 67
20, 2, 67
20, 2, 67
20, 2, 67
20, 2, 67
20, 2, 68
20, 2, 68
20, 2, 68
20, 2, 68
21, 2, 68
21, 2, 68
21, 2, 68
21, 2, 68
21, 2, 69
21, 2, 69
19, 1, 69
21, 2, 69
21, 2, 69
21, 2, 69
21, 2, 69
21, 2, 69
20, 2, 70
21, 2, 70
21, 2, 70
20, 2, 70
20, 2, 70
20, 2, 70
22, 2, 70
20, 2, 70
22, 2, 71
22, 2, 71
22, 2, 71
22, 2, 71
22, 2, 71
22, 2, 71
22, 2, 71
22, 2, 71
21, 2, 72
21, 2, 72
22, 2, 72
22, 2, 72
22, 2, 72
22, 2, 72
22, 2, 72
22, 2, 72
22, 2, 73
22, 2, 73
22, 2, 73
23, 2, 73
22, 2, 73
22, 2, 73
22, 2, 73
22, 2, 73
23, 2, 74
23, 2, 74
23, 2, 74
23, 2, 74
23, 2, 74
23, 2, 74
23, 2, 74
23, 2, 74
23, 2, 75
23, 2, 75
26, 2, 75
26, 2, 75
26, 2, 75
26, 2, 75
25, 2, 75
25, 2, 75
25, 2, 76
24, 2, 76
24, 2, 76
24, 2, 76
24, 2, 76
24, 2, 76
24, 2, 76
24, 2, 76
24, 2, 77
24, 2, 77
24, 2, 77
24, 2, 77
24, 2, 77
23, 2, 77
24, 2, 77
24, 2, 77
23, 2, 78
23, 2, 78
23, 2, 78
23, 2, 78
23, 2, 78
23, 2, 78
25, 2, 90
25, 2, 90
25, 2, 91
25, 2, 91
25, 2, 91
26, 2, 91
26, 2, 91
26, 2, 91
26, 2, 91
26, 2, 91
29, 2, 92
29, 2, 92
28, 2, 92
29, 2, 92
29, 2, 92
30, 3, 92
30, 3, 92
30, 3, 92
30, 3, 93
30, 3, 93
32, 3, 93
32, 3, 93
33, 3, 93
33, 3, 93
33, 3, 93
