42, 56, 0
41, 55, 0
41, 55, 0
41, 55, 0
41, 55, 0
41, 55, 0
41, 55, 0
41, 55, 0
41, 55, 1
41, 55, 1
41, 55, 1
41, 55, 1
41, 55, 1
41, 55, 1
41, 55, 1
41, 55, 1
41, 55, 2
41, 55, 2
41, 55, 2
41, 55, 2
41, 55, 2
41, 55, 2
41, 55, 2
42, 56, 2
42, 56, 3
42, 56, 3
41, 55, 3
41, 55, 3
41, 55, 3
42, 56, 3
42, 56, 3
42, 56, 3
41, 55, 4
41, 55, 4
41, 55, 4
41, 55, 4
41, 55, 4
41, 55, 4
42, 56, 4
41, 55, 4
41, 55, 5
41, 55, 5
41, 55, 5
41, 55, 5
41, 55, 5
41, 55, 5
42, 56, 5
41, 55, 5
41, 55, 6
41, 55, 6
41, 55, 6
42, 56, 6
42, 56, 6
41, 55, 6
41, 55, 6
41, 55, 6
42, 56, 7
42, 56, 7
41, 55, 7
42, 56, 7
42, 56, 7
42, 56, 7
41, 55, 7
41, 55, 7
42, 56, 8
41, 55, 8
41, 55, 8
42, 56, 8
42, 56, 8
42, 56, 8
42, 56, 8
41, 55, 8
41, 55, 9
41, 55, 9
41, 55, 9
41, 55, 9
41, 55, 9
42, 56, 9
42, 56, 9
41, 55, 9
41, 55, 10
41, 55, 10
41, 55, 10
41, 55, 10
41, 55, 10
41, 55, 10
42, 56, 10
41, 55, 10
41, 55, 11
41, 55, 11
42, 56, 11
41, 55, 11
41, 55, 11
42, 56, 11
41, 55, 11
42, 56, 11
41, 55, 12
41, 55, 12
42, 56, 12
42, 56, 12
41, 55, 12
42, 56, 12
42, 56, 12
42, 56, 12
42, 56, 13
41, 56, 13
42, 56, 13
41, 55, 13
42, 56, 13
41, 56, 13
41, 55, 13
42, 56, 13
41, 56, 14
41, 56, 14
42, 56, 14
42, 56, 14
42, 56, 14
41, 56, 14
41, 56, 14
41, 56, 14
41, 56, 15
41, 56, 15
41, 55, 15
41, 55, 15
41, 55, 15
41, 55, 15
41, 55, 15
41, 55, 15
41, 55, 16
41, 55, 16
-12, -17, 16
-12, -17, 16
-12, -17, 16
-12, -17, 16
-12, -17, 16
-12, -17, 16
-12, -17, 17
-13, -17, 17
-12, -17, 17
-12, -17, 17
-12, -17, 17
-12, -17, 17
-12, -17, 17
-12, -16, 17
-12, -16, 18
-12, -16, 18
-12, -16, 18
-12, -16, 18
-12, -16, 18
-12, -16, 18
-12, -16, 18
-12, -16, 18
-12, -16, 19
-12, -16, 19
-12, -16, 19
-12, -16, 19
-12, -16, 19
-12, -16, 19
-12, -16, 19
-12, -16, 19
-12, -16, 20
-12, -16, 20
-12, -16, 20
-12, -16, 20
-12, -16, 20
-11, -16, 20
-12, -16, 20
-11, -16, 20
-11, -15, 21
-11, -15, 21
-11, -15, 21
-11, -15, 21
-11, -15, 21
-11, -15, 21
-11, -15, 21
-11, -15, 21
-11, -15, 22
-11, -15, 22
-11, -15, 22
-11, -15, 22
-11, -15, 22
-11, -15, 22
-11, -15, 22
-11, -15, 22
-11, -15, 23
-11, -15, 23
-11, -15, 23
-11, -15, 23
-11, -15, 23
-11, -15, 23
-11, -15, 23
-11, -15, 23
-11, -15, 24
-11, -15, 24
-11, -14, 24
-11, -14, 24
-11, -14, 24
-11, -14, 24
-11, -14, 24
-11, -14, 24
-10, -14, 25
-10, -14, 25
-10, -14, 25
-10, -14, 25
-10, -14, 25
-10, -14, 25
-10, -14, 25
-10, -14, 25
-10, -14, 26
-10, -14, 26
-10, -14, 26
-10, -14, 26
-10, -14, 26
-10, -14, 26
-10, -14, 26
-10, -14, 26
-10, -14, 27
-10, -13, 27
-10, -14, 27
-10, -13, 27
-10, -13, 27
-10, -13, 27
-10, -13, 27
-10, -13, 27
-10, -13, 28
-10, -13, 28
-10, -13, 28
-10, -13, 28
-10, -13, 28
-10, -13, 28
-10, -13, 28
-10, -13, 28
-10, -13, 29
-9, -13, 29
-9, -13, 29
-9, -13, 29
-9, -13, 29
-9, -13, 29
-9, -12, 29
-9, -12, 29
-9, -12, 30
-9, -12, 30
-9, -12, 30
-9, -12, 30
-9, -12, 30
-9, -12, 30
-9, -12, 30
-9, -12, 30
-9, -12, 31
-9, -12, 31
-9, -12, 31
-9, -12, 31
-9, -12, 31
-9, -12, 31
-9, -12, 31
-9, -12, 31
-9, -12, 32
-9, -12, 32
-9, -12, 32
-9, -12, 32
-9, -12, 32
-8, -12, 32
-8, -12, 32
-8, -11, 32
-8, -11, 33
-8, -11, 33
-8, -11, 33
-8, -11, 33
-8, -11, 33
-8, -11, 33
-8, -11, 33
-8, -11, 33
-8, -11, 34
-8, -11, 34
-8, -11, 34
-8, -11, 34
-8, -11, 34
-8, -11, 34
-8, -11, 34
-8, -11, 34
-8, -11, 35
-8, -11, 35
-8, -11, 35
-8, -11, 35
-8, -11, 35
-8, -11, 35
-8, -11, 35
-8, -11, 35
-8, -11, 36
-8, -11, 36
-8, -11, 36
-8, -11, 36
-8, -11, 36
-8, -10, 36
-8, -10, 36
-8, -10, 36
-8, -10, 37
-8, -10, 37
-8, -10, 37
-8, -10, 37
-8, -10, 37
-8, -10, 37
-8, -10, 37
-8, -10, 37
-7, -10, 38
-8, -10, 38
-8, -10, 38
-8, -10, 38
-8, -10, 38
-7, -10, 38
-7, -10, 38
-7, -10, 38
-7, -10, 39
-7, -10, 39
-7, -10, 39
-7, -10, 39
-7, -10, 39
-7, -10, 39
-7, -10, 39
-7, -10, 39
-7, -10, 40
-7, -10, 40
-7, -10, 40
-7, -10, 40
-7, -10, 40
-7, -10, 40
-7, -10, 40
-7, -9, 40
-7, -9, 41
-7, -9, 41
-7, -9, 41
-7, -9, 41
-7, -9, 41
-7, -9, 41
-7, -9, 41
-6, -9, 41
-7, -9, 42
-7, -9, 42
-7, -9, 42
-6, -9, 42
-7, -9, 42
-7, -9, 42
-6, -9, 42
-7, -9, 42
-7, -9, 43
-7, -9, 43
-7, -9, 43
-7, -9, 43
-7, -9, 43
-7, -9, 43
-7, -9, 43
-7, -9, 43
-7, -9, 44
-7, -9, 44
-7, -10, 44
-7, -10, 44
-7, -9, 44
-7, -10, 44
-7, -10, 44
-7, -10, 44
-7, -10, 45
-7, -10, 45
-7, -10, 45
-7, -10, 45
-7, -10, 45
-8, -10, 45
-8, -10, 45
-7, -10, 45
-8, -10, 46
-7, -10, 46
-7, -10, 46
-7, -10, 46
-8, -10, 46
-7, -10, 46
-8, -10, 46
-7, -10, 46
-7, -10, 47
-7, -10, 47
-7, -10, 47
-8, -11, 47
-8, -10, 47
-8, -10, 47
-8, -10, 47
-8, -10, 47
-8, -10, 48
-8, -11, 48
-8, -10, 48
-8, -11, 48
-8, -10, 48
-8, -10, 48
-8, -11, 48
-8, -11, 48
-8, -11, 49
-8, -11, 49
-8, -11, 49
-8, -11, 49
-8, -11, 49
-8, -11, 49
-8, -11, 49
-8, -11, 49
-8, -11, 50
-8, -11, 50
-8, -11, 50
-8, -11, 50
-8, -11, 50
-8, -11, 50
-8, -11, 50
-8, -11, 50
-8, -11, 51
-8, -11, 51
-8, -12, 51
-8, -12, 51
-8, -12, 51
-8, -11, 51
-8, -11, 51
-9, -12, 51
-9, -12, 52
-8, -12, 52
-9, -12, 52
-9, -12, 52
-9, -12, 52
-9, -12, 52
-9, -12, 52
-9, -12, 52
-9, -12, 53
-9, -12, 53
-9, -12, 53
-9, -12, 53
-9, -12, 53
-9, -12, 53
-9, -12, 53
-9, -12, 53
-9, -12, 54
-9, -12, 54
-9, -12, 54
-9, -13, 54
-9, -13, 54
-9, -13, 54
-9, -12, 54
-9, -12, 54
-9, -13, 55
-10, -13, 55
-10, -13, 55
-9, -12, 55
-10, -13, 55
-9, -12, 55
-9, -13, 55
-10, -13, 55
-9, -13, 56
-9, -13, 56
-9, -13, 56
-9, -13, 56
-10, -13, 56
-10, -13, 56
-10, -13, 56
-9, -13, 56
-10, -13, 57
-10, -13, 57
-10, -13, 57
-10, -13, 57
-10, -14, 57
-10, -13, 57
-10, -13, 57
-10, -14, 57
-10, -13, 58
-10, -13, 58
-10, -13, 58
-10, -14, 58
-10, -14, 58
-10, -14, 58
-10, -14, 58
-10, -14, 58
-10, -14, 59
-10, -14, 59
-10, -14, 59
-10, -14, 59
-10, -14, 59
-10, -14, 59
-10, -14, 59
-10, -14, 59
-11, -14, 60
-11, -14, 60
-11, -14, 60
-10, -14, 60
-10, -14, 60
-10, -14, 60
-10, -14, 60
-10, -14, 60
-11, -15, 61
-10, -14, 61
-10, -14, 61
-11, -14, 61
-11, -15, 61
-11, -15, 61
-11, -15, 61
-11, -15, 61
-11, -14, 62
-11, -15, 62
-11, -15, 62
-11, -15, 62
-11, -15, 62
-11, -15, 62
-11, -15, 62
-11, -15, 62
-11, -15, 63
-11, -15, 63
-11, -16, 63
-11, -15, 63
-11, -15, 63
-11, -15, 63
-11, -15, 63
-12, -16, 63
-11, -15, 64
-12, -16, 64
-12, -16, 64
-11, -15, 64
-12, -16, 64
-11, -15, 64
-11, -15, 64
-12, -16, 64
-12, -16, 65
-12, -16, 65
-12, -16, 65
-12, -16, 65
-12, -16, 65
-12, -16, 65
-12, -16, 65
-12, -16, 65
-12, -17, 66
-12, -16, 66
-12, -17, 66
-12, -17, 66
-12, -17, 66
-12, -17, 66
-12, -17, 66
-12, -16, 66
-12, -16, 67
-12, -16, 67
-12, -16, 67
-12, -16, 67
-13, -17, 67
-12, -16, 67
-12, -16, 67
-13, -17, 67
-12, -17, 68
-12, -17, 68
-12, -17, 68
-13, -17, 68
-13, -17, 68
-13, -17, 68
-12, -17, 68
-13, -17, 68
-13, -18, 69
-13, -18, 69
-13, -18, 69
-13, -17, 69
-13, -17, 69
-13, -17, 69
-13, -18, 69
-13, -18, 69
-13, -17, 70
-13, -18, 70
-13, -18, 70
-13, -17, 70
-13, -18, 70
-13, -17, 70
-13, -18, 70
-13, -18, 70
-14, -18, 71
-13, -18, 71
-13, -18, 71
-13, -18, 71
-13, -18, 71
-14, -18, 71
-14, -18, 71
-14, -19, 71
-13, -18, 72
-13, -18, 72
-14, -19, 72
-14, -19, 72
-14, -19, 72
-14, -19, 72
-14, -19, 72
-14, -19, 72
-14, -18, 73
-14, -18, 73
-14, -19, 73
-14, -19, 73
-14, -19, 73
-14, -19, 73
-14, -19, 73
-14, -19, 73
-14, -19, 74
-14, -19, 74
-14, -19, 74
-14, -19, 74
-14, -19, 74
-14, -19, 74
-14, -19, 74
-14, -19, 74
-14, -19, 75
-14, -19, 75
-14, -19, 75
-14, -19, 75
-15, -20, 75
-15, -20, 75
-14, -19, 75
-14, -19, 75
-15, -20, 76
-15, -20, 76
-15, -20, 76
-15, -21, 76
-15, -20, 76
-15, -21, 76
-15, -21, 76
-15, -21, 76
-15, -20, 77
-15, -21, 77
-15, -21, 77
-15, -21, 77
-15, -21, 77
-15, -21, 77
-15, -21, 77
-15, -21, 77
-15, -20, 78
-15, -20, 78
-15, -20, 78
-15, -20, 78
-15, -20, 78
-15, -20, 78
-15, -20, 78
-15, -20, 78
-15, -20, 79
-21, -29, 79
-21, -29, 79
-21, -29, 79
-22, -29, 79
-16, -22, 91
-16, -22, 91
-15, -21, 91
-15, -21, 91
-15, -20, 91
-15, -21, 91
-18, -24, 91
-17, -23, 92
-17, -23, 92
-17, -23, 92
-17, -23, 92
-17, -23, 92
-18, -24, 92
-18, -24, 92
-18, -24, 92
-18, -24, 93
-18, -24, 93
-18, -25, 93
-19, -26, 93
-20, -26, 93
-20, -26, 93
