16, -68, 0
15, -67, 0
15, -67, 0
15, -67, 0
15, -67, 0
15, -67, 0
16, -68, 0
16, -68, 0
16, -68, 1
16, -68, 1
15, -67, 1
15, -67, 1
15, -67, 1
15, -67, 1
15, -67, 1
15, -67, 1
15, -67, 2
15, -67, 2
16, -68, 2
16, -68, 2
15, -67, 2
15, -67, 2
16, -68, 2
16, -68, 2
15, -67, 3
16, -68, 3
16, -68, 3
15, -67, 3
16, -68, 3
16, -68, 3
15, -67, 3
16, -68, 3
16, -68, 4
15, -67, 4
15, -67, 4
15, -67, 4
15, -67, 4
16, -68, 4
16, -68, 4
15, -67, 4
16, -68, 5
15, -67, 5
15, -67, 5
15, -67, 5
15, -67, 5
15, -67, 5
15, -67, 5
15, -67, 5
16, -68, 6
15, -67, 6
15, -67, 6
16, -68, 6
16, -68, 6
16, -68, 6
15, -67, 6
15, -67, 6
15, -67, 7
16, -68, 7
15, -67, 7
15, -67, 7
16, -68, 7
16, -68, 7
16, -68, 7
15, -67, 7
15, -67, 8
15, -67, 8
15, -67, 8
15, -67, 8
16, -68, 8
16, -68, 8
16, -68, 8
16, -68, 8
16, -68, 9
15, -67, 9
15, -67, 9
15, -67, 9
15, -67, 9
16, -68, 9
15, -67, 9
16, -68, 9
15, -67, 10
15, -67, 10
16, -68, 10
16, -68, 10
15, -67, 10
15, -67, 10
15, -67, 10
15, -67, 10
15, -67, 11
16, -68, 11
15, -67, 11
15, -67, 11
15, -67, 11
16, -68, 11
16, -68, 11
16, -68, 11
15, -67, 12
15, -67, 12
15, -67, 12
15, -68, 12
15, -68, 12
16, -68, 12
15, -68, 12
16, -68, 12
16, -68, 13
16, -68, 13
15, -68, 13
15, -68, 13
15, -68, 13
15, -68, 13
15, -68, 13
15, -68, 13
15, -68, 14
15, -68, 14
15, -68, 14
15, -67, 14
15, -67, 14
15, -67, 14
15, -67, 14
15, -67, 14
15, -67, 15
15, -67, 15
15, -67, 15
-4, 17, 15
-4, 17, 15
-4, 17, 15
-4, 17, 15
-3, 17, 15
-4, 18, 16
-4, 17, 16
-3, 17, 16
-4, 17, 16
-3, 16, 16
-3, 16, 16
-3, 16, 16
-3, 16, 16
-3, 16, 17
-3, 16, 17
-3, 16, 17
-4, 17, 17
-3, 16, 17
-3, 16, 17
-3, 16, 17
-3, 16, 17
-3, 16, 18
-3, 16, 18
-4, 17, 18
-3, 16, 18
-3, 16, 18
-3, 16, 18
-3, 16, 18
-3, 16, 18
-3, 16, 19
-3, 15, 19
-3, 15, 19
-3, 15, 19
-3, 15, 19
-3, 15, 19
-3, 15, 19
-3, 15, 19
-3, 16, 20
-3, 15, 20
-3, 15, 20
-3, 15, 20
-3, 15, 20
-3, 15, 20
-3, 15, 20
-3, 15, 20
-3, 15, 21
-3, 15, 21
-3, 15, 21
-3, 15, 21
-3, 15, 21
-3, 15, 21
-3, 15, 21
-3, 15, 21
-3, 15, 22
-3, 15, 22
-3, 15, 22
-3, 16, 22
-3, 14, 22
-3, 14, 22
-3, 15, 22
-3, 15, 22
-3, 14, 23
-3, 15, 23
-3, 14, 23
-3, 14, 23
-3, 14, 23
-3, 14, 23
-3, 15, 23
-3, 15, 23
-3, 14, 24
-3, 14, 24
-3, 14, 24
-3, 14, 24
-3, 14, 24
-3, 14, 24
-3, 14, 24
-3, 14, 24
-3, 14, 25
-3, 14, 25
-3, 13, 25
-3, 14, 25
-3, 13, 25
-3, 13, 25
-3, 13, 25
-3, 13, 25
-3, 13, 26
-3, 13, 26
-3, 13, 26
-3, 14, 26
-3, 13, 26
-3, 13, 26
-3, 13, 26
-3, 13, 26
-3, 14, 27
-3, 14, 27
-3, 13, 27
-3, 13, 27
-3, 12, 27
-3, 12, 27
-2, 12, 27
-1, 7, 27
-3, 13, 28
-1, 6, 28
-1, 6, 28
-2, 12, 28
-2, 12, 28
-2, 12, 28
-2, 12, 28
-2, 12, 28
-2, 12, 29
-2, 12, 29
-2, 12, 29
-3, 13, 29
-3, 12, 29
-2, 12, 29
-2, 12, 29
-2, 12, 29
-2, 12, 30
-2, 11, 30
-2, 12, 30
-2, 12, 30
-2, 11, 30
-2, 12, 30
-2, 12, 30
-2, 11, 30
-2, 11, 31
-2, 11, 31
-2, 11, 31
-2, 12, 31
-2, 12, 31
-2, 12, 31
-2, 11, 31
-2, 11, 31
-2, 11, 32
-2, 11, 32
-2, 11, 32
-2, 11, 32
-2, 11, 32
-2, 12, 32
-2, 11, 32
-2, 11, 32
-2, 11, 33
-2, 11, 33
-2, 11, 33
-2, 11, 33
-2, 10, 33
-2, 11, 33
-2, 10, 33
-2, 11, 33
-2, 10, 34
-2, 11, 34
-2, 10, 34
-2, 10, 34
-2, 10, 34
-2, 10, 34
-2, 10, 34
-2, 10, 34
-2, 10, 35
-2, 10, 35
-2, 10, 35
-2, 10, 35
-2, 11, 35
-2, 11, 35
-2, 10, 35
-2, 10, 35
-2, 10, 36
-2, 10, 36
-2, 10, 36
-2, 10, 36
-2, 10, 36
-2, 10, 36
-2, 10, 36
-2, 10, 36
-2, 10, 37
-2, 10, 37
-2, 9, 37
-2, 9, 37
-2, 10, 37
-2, 9, 37
-2, 9, 37
-2, 9, 37
-2, 9, 38
-2, 9, 38
-2, 9, 38
-2, 10, 38
-2, 9, 38
-2, 10, 38
-2, 9, 38
-2, 9, 38
-2, 9, 39
-2, 9, 39
-2, 10, 39
-2, 9, 39
-2, 9, 39
-2, 9, 39
-2, 9, 39
-2, 9, 39
-2, 9, 40
-2, 9, 40
-2, 9, 40
-2, 9, 40
-2, 9, 40
-2, 8, 40
-2, 8, 40
-2, 8, 40
-2, 8, 41
-2, 8, 41
-2, 8, 41
-2, 8, 41
-2, 8, 41
-2, 8, 41
-2, 8, 41
-2, 8, 41
-2, 8, 42
-2, 9, 42
-2, 9, 42
-2, 9, 42
-2, 9, 42
-2, 9, 42
-2, 9, 42
-2, 9, 42
-2, 9, 43
-2, 9, 43
-2, 9, 43
-2, 9, 43
-2, 9, 43
-2, 9, 43
-2, 10, 43
-2, 9, 43
-2, 9, 44
-2, 10, 44
-2, 10, 44
-2, 9, 44
-2, 9, 44
-2, 9, 44
-2, 9, 44
-2, 10, 44
-2, 10, 45
-2, 10, 45
-2, 10, 45
-2, 10, 45
-2, 10, 45
-2, 10, 45
-2, 10, 45
-2, 10, 45
-2, 10, 46
-2, 10, 46
-2, 10, 46
-2, 10, 46
-2, 10, 46
-2, 10, 46
-2, 10, 46
-2, 11, 46
-2, 11, 47
-2, 11, 47
-2, 10, 47
-2, 10, 47
-2, 11, 47
-2, 10, 47
-2, 10, 47
-2, 11, 47
-2, 11, 48
-2, 11, 48
-2, 10, 48
-2, 10, 48
-2, 11, 48
-2, 11, 48
-2, 11, 48
-2, 11, 48
-2, 11, 49
-2, 11, 49
-1, 5, 49
-2, 11, 49
-2, 11, 49
-2, 11, 49
-2, 11, 49
-2, 12, 49
-2, 11, 50
-2, 12, 50
-2, 12, 50
-2, 12, 50
-2, 12, 50
-2, 12, 50
-2, 12, 50
-2, 12, 50
-2, 12, 51
-2, 12, 51
-2, 12, 51
-2, 12, 51
-2, 12, 51
-2, 12, 51
-2, 12, 51
-3, 12, 51
-3, 13, 52
-3, 12, 52
-3, 13, 52
-3, 13, 52
-2, 12, 52
-2, 12, 52
-2, 12, 52
-3, 13, 52
-3, 13, 53
-2, 12, 53
-3, 13, 53
-3, 13, 53
-3, 13, 53
-3, 13, 53
-2, 12, 53
-3, 13, 53
-3, 12, 54
-3, 12, 54
-3, 13, 54
-3, 14, 54
-3, 14, 54
-3, 14, 54
-3, 14, 54
-3, 13, 54
-3, 14, 55
-3, 14, 55
-3, 14, 55
-3, 14, 55
-3, 14, 55
-3, 14, 55
-3, 14, 55
-3, 14, 55
-3, 13, 56
-3, 14, 56
-3, 14, 56
-3, 14, 56
-3, 15, 56
-3, 15, 56
-3, 15, 56
-3, 15, 56
-3, 15, 57
-3, 15, 57
-3, 15, 57
-3, 15, 57
-3, 15, 57
-3, 15, 57
-3, 15, 57
-3, 15, 57
-3, 15, 58
-3, 15, 58
-3, 15, 58
-3, 15, 58
-3, 15, 58
-3, 16, 58
-3, 16, 58
-3, 16, 58
-3, 15, 59
-3, 16, 59
-3, 16, 59
-3, 16, 59
-3, 16, 59
-3, 16, 59
-3, 16, 59
-3, 16, 59
-3, 16, 60
-3, 16, 60
-3, 16, 60
-3, 16, 60
-3, 16, 60
-3, 16, 60
-3, 16, 60
-3, 16, 60
-2, 10, 61
-4, 17, 61
-4, 17, 61
-4, 17, 61
-4, 17, 61
-4, 17, 61
-4, 17, 61
-4, 17, 61
-4, 17, 62
-4, 17, 62
-4, 17, 62
-4, 17, 62
-4, 17, 62
-4, 17, 62
-4, 17, 62
-4, 17, 62
-4, 17, 63
-4, 17, 63
-4, 17, 63
-3, 16, 63
-4, 18, 63
-3, 17, 63
-4, 18, 63
-4, 18, 63
-4, 18, 64
-4, 18, 64
-4, 18, 64
-4, 18, 64
-4, 17, 64
-4, 18, 64
-4, 17, 64
-4, 19, 64
-4, 17, 65
-4, 18, 65
-4, 19, 65
-4, 19, 65
-4, 19, 65
-4, 19, 65
-4, 19, 65
-4, 19, 65
-4, 18, 66
-4, 18, 66
-4, 19, 66
-4, 19, 66
-4, 19, 66
-4, 18, 66
-4, 19, 66
-4, 19, 66
-4, 19, 67
-4, 19, 67
-4, 19, 67
-4, 18, 67
-4, 20, 67
-4, 20, 67
-4, 20, 67
-4, 20, 67
-4, 19, 68
-4, 20, 68
-4, 20, 68
-4, 20, 68
-4, 20, 68
-4, 20, 68
-4, 20, 68
-4, 20, 68
-4, 19, 69
-4, 19, 69
-4, 20, 69
-4, 20, 69
-4, 20, 69
-4, 21, 69
-4, 21, 69
-4, 21, 69
-4, 21, 70
-4, 21, 70
-4, 21, 70
-4, 21, 70
-5, 21, 70
-5, 21, 70
-5, 21, 70
-5, 21, 70
-5, 21, 71
-4, 20, 71
-4, 20, 71
-5, 21, 71
-4, 20, 71
-4, 20, 71
-4, 20, 71
-5, 21, 71
-4, 20, 72
-4, 20, 72
-4, 21, 72
-4, 21, 72
-4, 21, 72
-4, 21, 72
-4, 21, 72
-5, 21, 72
-4, 21, 73
-5, 21, 73
-5, 21, 73
-4, 20, 73
-5, 21, 73
-4, 20, 73
-4, 21, 73
-4, 21, 73
-5, 24, 74
-4, 20, 74
-6, 25, 74
-6, 26, 74
-6, 27, 74
-6, 27, 74
-6, 27, 74
-6, 27, 74
-6, 27, 75
-5, 24, 75
-7, 30, 75
-7, 30, 75
-7, 30, 75
-7, 30, 75
-7, 32, 75
-7, 32, 75
-8, 34, 76
-8, 34, 76
-8, 34, 76
-8, 34, 76
-8, 34, 76
-8, 35, 76
-8, 35, 76
-8, 35, 76
-8, 35, 77
-8, 35, 77
-8, 35, 77
-8, 35, 77
-8, 35, 77
-8, 35, 77
-8, 35, 77
-8, 35, 77
-8, 35, 78
-6, 28, 91
-6, 29, 91
-6, 27, 91
-5, 25, 91
-5, 25, 91
-6, 25, 91
-6, 28, 91
-6, 27, 92
-6, 29, 92
-6, 29, 92
-6, 28, 92
-6, 29, 92
-6, 29, 92
-6, 29, 92
-6, 29, 92
-7, 30, 93
-7, 30, 93
-7, 30, 93
-7, 32, 93
-7, 32, 93
-7, 32, 93
